# E (eV)   ldos(E)   pdos(E)   
 -29.000  0.132E-06  0.132E-06
 -28.990  0.173E-06  0.173E-06
 -28.980  0.225E-06  0.225E-06
 -28.970  0.292E-06  0.292E-06
 -28.960  0.379E-06  0.379E-06
 -28.950  0.490E-06  0.490E-06
 -28.940  0.631E-06  0.631E-06
 -28.930  0.812E-06  0.812E-06
 -28.920  0.104E-05  0.104E-05
 -28.910  0.133E-05  0.133E-05
 -28.900  0.170E-05  0.170E-05
 -28.890  0.216E-05  0.216E-05
 -28.880  0.274E-05  0.274E-05
 -28.870  0.346E-05  0.346E-05
 -28.860  0.437E-05  0.437E-05
 -28.850  0.550E-05  0.550E-05
 -28.840  0.690E-05  0.690E-05
 -28.830  0.863E-05  0.863E-05
 -28.820  0.108E-04  0.108E-04
 -28.810  0.134E-04  0.134E-04
 -28.800  0.166E-04  0.166E-04
 -28.790  0.206E-04  0.206E-04
 -28.780  0.254E-04  0.254E-04
 -28.770  0.313E-04  0.313E-04
 -28.760  0.384E-04  0.384E-04
 -28.750  0.470E-04  0.470E-04
 -28.740  0.574E-04  0.574E-04
 -28.730  0.698E-04  0.698E-04
 -28.720  0.848E-04  0.848E-04
 -28.710  0.103E-03  0.103E-03
 -28.700  0.124E-03  0.124E-03
 -28.690  0.149E-03  0.149E-03
 -28.680  0.179E-03  0.179E-03
 -28.670  0.215E-03  0.215E-03
 -28.660  0.257E-03  0.257E-03
 -28.650  0.306E-03  0.306E-03
 -28.640  0.363E-03  0.363E-03
 -28.630  0.430E-03  0.430E-03
 -28.620  0.508E-03  0.508E-03
 -28.610  0.599E-03  0.599E-03
 -28.600  0.704E-03  0.704E-03
 -28.590  0.825E-03  0.825E-03
 -28.580  0.964E-03  0.964E-03
 -28.570  0.112E-02  0.112E-02
 -28.560  0.131E-02  0.131E-02
 -28.550  0.151E-02  0.151E-02
 -28.540  0.175E-02  0.175E-02
 -28.530  0.202E-02  0.202E-02
 -28.520  0.232E-02  0.232E-02
 -28.510  0.266E-02  0.266E-02
 -28.500  0.305E-02  0.305E-02
 -28.490  0.347E-02  0.347E-02
 -28.480  0.395E-02  0.395E-02
 -28.470  0.448E-02  0.448E-02
 -28.460  0.507E-02  0.507E-02
 -28.450  0.572E-02  0.572E-02
 -28.440  0.644E-02  0.644E-02
 -28.430  0.722E-02  0.722E-02
 -28.420  0.809E-02  0.809E-02
 -28.410  0.903E-02  0.903E-02
 -28.400  0.100E-01  0.100E-01
 -28.390  0.112E-01  0.112E-01
 -28.380  0.124E-01  0.124E-01
 -28.370  0.136E-01  0.136E-01
 -28.360  0.150E-01  0.150E-01
 -28.350  0.165E-01  0.165E-01
 -28.340  0.181E-01  0.181E-01
 -28.330  0.198E-01  0.198E-01
 -28.320  0.215E-01  0.215E-01
 -28.310  0.234E-01  0.234E-01
 -28.300  0.254E-01  0.254E-01
 -28.290  0.275E-01  0.275E-01
 -28.280  0.296E-01  0.296E-01
 -28.270  0.319E-01  0.319E-01
 -28.260  0.342E-01  0.342E-01
 -28.250  0.366E-01  0.366E-01
 -28.240  0.391E-01  0.391E-01
 -28.230  0.417E-01  0.417E-01
 -28.220  0.443E-01  0.443E-01
 -28.210  0.469E-01  0.469E-01
 -28.200  0.496E-01  0.496E-01
 -28.190  0.523E-01  0.523E-01
 -28.180  0.551E-01  0.551E-01
 -28.170  0.579E-01  0.579E-01
 -28.160  0.606E-01  0.606E-01
 -28.150  0.634E-01  0.634E-01
 -28.140  0.661E-01  0.661E-01
 -28.130  0.688E-01  0.688E-01
 -28.120  0.715E-01  0.715E-01
 -28.110  0.741E-01  0.741E-01
 -28.100  0.766E-01  0.766E-01
 -28.090  0.791E-01  0.791E-01
 -28.080  0.815E-01  0.815E-01
 -28.070  0.839E-01  0.839E-01
 -28.060  0.861E-01  0.861E-01
 -28.050  0.883E-01  0.883E-01
 -28.040  0.904E-01  0.904E-01
 -28.030  0.924E-01  0.924E-01
 -28.020  0.943E-01  0.943E-01
 -28.010  0.961E-01  0.961E-01
 -28.000  0.978E-01  0.978E-01
 -27.990  0.995E-01  0.995E-01
 -27.980  0.101E+00  0.101E+00
 -27.970  0.102E+00  0.102E+00
 -27.960  0.104E+00  0.104E+00
 -27.950  0.105E+00  0.105E+00
 -27.940  0.106E+00  0.106E+00
 -27.930  0.108E+00  0.108E+00
 -27.920  0.109E+00  0.109E+00
 -27.910  0.110E+00  0.110E+00
 -27.900  0.111E+00  0.111E+00
 -27.890  0.112E+00  0.112E+00
 -27.880  0.113E+00  0.113E+00
 -27.870  0.113E+00  0.113E+00
 -27.860  0.114E+00  0.114E+00
 -27.850  0.115E+00  0.115E+00
 -27.840  0.116E+00  0.116E+00
 -27.830  0.116E+00  0.116E+00
 -27.820  0.117E+00  0.117E+00
 -27.810  0.118E+00  0.118E+00
 -27.800  0.118E+00  0.118E+00
 -27.790  0.119E+00  0.119E+00
 -27.780  0.119E+00  0.119E+00
 -27.770  0.119E+00  0.119E+00
 -27.760  0.119E+00  0.119E+00
 -27.750  0.120E+00  0.120E+00
 -27.740  0.120E+00  0.120E+00
 -27.730  0.120E+00  0.120E+00
 -27.720  0.119E+00  0.119E+00
 -27.710  0.119E+00  0.119E+00
 -27.700  0.119E+00  0.119E+00
 -27.690  0.118E+00  0.118E+00
 -27.680  0.117E+00  0.117E+00
 -27.670  0.116E+00  0.116E+00
 -27.660  0.115E+00  0.115E+00
 -27.650  0.114E+00  0.114E+00
 -27.640  0.113E+00  0.113E+00
 -27.630  0.112E+00  0.112E+00
 -27.620  0.110E+00  0.110E+00
 -27.610  0.108E+00  0.108E+00
 -27.600  0.107E+00  0.107E+00
 -27.590  0.105E+00  0.105E+00
 -27.580  0.103E+00  0.103E+00
 -27.570  0.101E+00  0.101E+00
 -27.560  0.985E-01  0.985E-01
 -27.550  0.963E-01  0.963E-01
 -27.540  0.940E-01  0.940E-01
 -27.530  0.916E-01  0.916E-01
 -27.520  0.893E-01  0.893E-01
 -27.510  0.869E-01  0.869E-01
 -27.500  0.845E-01  0.845E-01
 -27.490  0.822E-01  0.822E-01
 -27.480  0.799E-01  0.799E-01
 -27.470  0.776E-01  0.776E-01
 -27.460  0.754E-01  0.754E-01
 -27.450  0.733E-01  0.733E-01
 -27.440  0.713E-01  0.713E-01
 -27.430  0.694E-01  0.694E-01
 -27.420  0.676E-01  0.676E-01
 -27.410  0.659E-01  0.659E-01
 -27.400  0.644E-01  0.644E-01
 -27.390  0.630E-01  0.630E-01
 -27.380  0.618E-01  0.618E-01
 -27.370  0.608E-01  0.608E-01
 -27.360  0.599E-01  0.599E-01
 -27.350  0.592E-01  0.592E-01
 -27.340  0.587E-01  0.587E-01
 -27.330  0.584E-01  0.584E-01
 -27.320  0.583E-01  0.583E-01
 -27.310  0.584E-01  0.584E-01
 -27.300  0.587E-01  0.587E-01
 -27.290  0.592E-01  0.592E-01
 -27.280  0.599E-01  0.599E-01
 -27.270  0.608E-01  0.608E-01
 -27.260  0.619E-01  0.619E-01
 -27.250  0.632E-01  0.632E-01
 -27.240  0.647E-01  0.647E-01
 -27.230  0.664E-01  0.664E-01
 -27.220  0.683E-01  0.683E-01
 -27.210  0.704E-01  0.704E-01
 -27.200  0.727E-01  0.727E-01
 -27.190  0.752E-01  0.752E-01
 -27.180  0.778E-01  0.778E-01
 -27.170  0.806E-01  0.806E-01
 -27.160  0.836E-01  0.836E-01
 -27.150  0.867E-01  0.867E-01
 -27.140  0.899E-01  0.899E-01
 -27.130  0.933E-01  0.933E-01
 -27.120  0.968E-01  0.968E-01
 -27.110  0.100E+00  0.100E+00
 -27.100  0.104E+00  0.104E+00
 -27.090  0.108E+00  0.108E+00
 -27.080  0.112E+00  0.112E+00
 -27.070  0.115E+00  0.115E+00
 -27.060  0.119E+00  0.119E+00
 -27.050  0.123E+00  0.123E+00
 -27.040  0.127E+00  0.127E+00
 -27.030  0.131E+00  0.131E+00
 -27.020  0.134E+00  0.134E+00
 -27.010  0.138E+00  0.138E+00
 -27.000  0.141E+00  0.141E+00
 -26.990  0.145E+00  0.145E+00
 -26.980  0.148E+00  0.148E+00
 -26.970  0.151E+00  0.151E+00
 -26.960  0.153E+00  0.153E+00
 -26.950  0.156E+00  0.156E+00
 -26.940  0.158E+00  0.158E+00
 -26.930  0.160E+00  0.160E+00
 -26.920  0.162E+00  0.162E+00
 -26.910  0.163E+00  0.163E+00
 -26.900  0.164E+00  0.164E+00
 -26.890  0.165E+00  0.165E+00
 -26.880  0.165E+00  0.165E+00
 -26.870  0.165E+00  0.165E+00
 -26.860  0.165E+00  0.165E+00
 -26.850  0.164E+00  0.164E+00
 -26.840  0.163E+00  0.163E+00
 -26.830  0.162E+00  0.162E+00
 -26.820  0.160E+00  0.160E+00
 -26.810  0.158E+00  0.158E+00
 -26.800  0.156E+00  0.156E+00
 -26.790  0.153E+00  0.153E+00
 -26.780  0.150E+00  0.150E+00
 -26.770  0.147E+00  0.147E+00
 -26.760  0.144E+00  0.144E+00
 -26.750  0.140E+00  0.140E+00
 -26.740  0.136E+00  0.136E+00
 -26.730  0.132E+00  0.132E+00
 -26.720  0.128E+00  0.128E+00
 -26.710  0.123E+00  0.123E+00
 -26.700  0.119E+00  0.119E+00
 -26.690  0.114E+00  0.114E+00
 -26.680  0.110E+00  0.110E+00
 -26.670  0.105E+00  0.105E+00
 -26.660  0.100E+00  0.100E+00
 -26.650  0.954E-01  0.954E-01
 -26.640  0.907E-01  0.907E-01
 -26.630  0.860E-01  0.860E-01
 -26.620  0.814E-01  0.814E-01
 -26.610  0.768E-01  0.768E-01
 -26.600  0.723E-01  0.723E-01
 -26.590  0.679E-01  0.679E-01
 -26.580  0.636E-01  0.636E-01
 -26.570  0.594E-01  0.594E-01
 -26.560  0.554E-01  0.554E-01
 -26.550  0.515E-01  0.515E-01
 -26.540  0.477E-01  0.477E-01
 -26.530  0.440E-01  0.440E-01
 -26.520  0.405E-01  0.405E-01
 -26.510  0.371E-01  0.371E-01
 -26.500  0.339E-01  0.339E-01
 -26.490  0.308E-01  0.308E-01
 -26.480  0.279E-01  0.279E-01
 -26.470  0.251E-01  0.251E-01
 -26.460  0.224E-01  0.224E-01
 -26.450  0.199E-01  0.199E-01
 -26.440  0.175E-01  0.175E-01
 -26.430  0.153E-01  0.153E-01
 -26.420  0.131E-01  0.131E-01
 -26.410  0.111E-01  0.111E-01
 -26.400  0.924E-02  0.924E-02
 -26.390  0.748E-02  0.748E-02
 -26.380  0.583E-02  0.583E-02
 -26.370  0.429E-02  0.429E-02
 -26.360  0.286E-02  0.286E-02
 -26.350  0.153E-02  0.153E-02
 -26.340  0.310E-03  0.310E-03
 -26.330 -0.813E-03 -0.813E-03
 -26.320 -0.184E-02 -0.184E-02
 -26.310 -0.277E-02 -0.277E-02
 -26.300 -0.362E-02 -0.362E-02
 -26.290 -0.437E-02 -0.437E-02
 -26.280 -0.504E-02 -0.504E-02
 -26.270 -0.563E-02 -0.563E-02
 -26.260 -0.614E-02 -0.614E-02
 -26.250 -0.658E-02 -0.658E-02
 -26.240 -0.694E-02 -0.694E-02
 -26.230 -0.723E-02 -0.723E-02
 -26.220 -0.746E-02 -0.746E-02
 -26.210 -0.763E-02 -0.763E-02
 -26.200 -0.774E-02 -0.774E-02
 -26.190 -0.780E-02 -0.780E-02
 -26.180 -0.780E-02 -0.780E-02
 -26.170 -0.777E-02 -0.777E-02
 -26.160 -0.768E-02 -0.768E-02
 -26.150 -0.756E-02 -0.756E-02
 -26.140 -0.741E-02 -0.741E-02
 -26.130 -0.723E-02 -0.723E-02
 -26.120 -0.702E-02 -0.702E-02
 -26.110 -0.678E-02 -0.678E-02
 -26.100 -0.653E-02 -0.653E-02
 -26.090 -0.627E-02 -0.627E-02
 -26.080 -0.599E-02 -0.599E-02
 -26.070 -0.570E-02 -0.570E-02
 -26.060 -0.541E-02 -0.541E-02
 -26.050 -0.511E-02 -0.511E-02
 -26.040 -0.481E-02 -0.481E-02
 -26.030 -0.452E-02 -0.452E-02
 -26.020 -0.423E-02 -0.423E-02
 -26.010 -0.394E-02 -0.394E-02
 -26.000 -0.366E-02 -0.366E-02
 -25.990 -0.339E-02 -0.339E-02
 -25.980 -0.313E-02 -0.313E-02
 -25.970 -0.289E-02 -0.289E-02
 -25.960 -0.265E-02 -0.265E-02
 -25.950 -0.242E-02 -0.242E-02
 -25.940 -0.221E-02 -0.221E-02
 -25.930 -0.201E-02 -0.201E-02
 -25.920 -0.182E-02 -0.182E-02
 -25.910 -0.165E-02 -0.165E-02
 -25.900 -0.148E-02 -0.148E-02
 -25.890 -0.133E-02 -0.133E-02
 -25.880 -0.119E-02 -0.119E-02
 -25.870 -0.107E-02 -0.107E-02
 -25.860 -0.949E-03 -0.949E-03
 -25.850 -0.842E-03 -0.842E-03
 -25.840 -0.745E-03 -0.745E-03
 -25.830 -0.658E-03 -0.658E-03
 -25.820 -0.579E-03 -0.579E-03
 -25.810 -0.508E-03 -0.508E-03
 -25.800 -0.445E-03 -0.445E-03
 -25.790 -0.388E-03 -0.388E-03
 -25.780 -0.338E-03 -0.338E-03
 -25.770 -0.293E-03 -0.293E-03
 -25.760 -0.253E-03 -0.253E-03
 -25.750 -0.219E-03 -0.219E-03
 -25.740 -0.188E-03 -0.188E-03
 -25.730 -0.161E-03 -0.161E-03
 -25.720 -0.138E-03 -0.138E-03
 -25.710 -0.118E-03 -0.118E-03
 -25.700 -0.100E-03 -0.100E-03
 -25.690 -0.849E-04 -0.849E-04
 -25.680 -0.718E-04 -0.718E-04
 -25.670 -0.605E-04 -0.605E-04
 -25.660 -0.509E-04 -0.509E-04
 -25.650 -0.427E-04 -0.427E-04
 -25.640 -0.357E-04 -0.357E-04
 -25.630 -0.298E-04 -0.298E-04
 -25.620 -0.248E-04 -0.248E-04
 -25.610 -0.205E-04 -0.205E-04
 -25.600 -0.170E-04 -0.170E-04
 -25.590 -0.140E-04 -0.140E-04
 -25.580 -0.115E-04 -0.115E-04
 -25.570 -0.946E-05 -0.946E-05
 -25.560 -0.773E-05 -0.773E-05
 -25.550 -0.631E-05 -0.631E-05
 -25.540 -0.513E-05 -0.513E-05
 -25.530 -0.416E-05 -0.416E-05
 -25.520 -0.337E-05 -0.337E-05
 -25.510 -0.272E-05 -0.272E-05
 -25.500 -0.218E-05 -0.218E-05
 -25.490 -0.175E-05 -0.175E-05
 -25.480 -0.140E-05 -0.140E-05
 -25.470 -0.112E-05 -0.112E-05
 -25.460 -0.890E-06 -0.890E-06
 -25.450 -0.706E-06 -0.706E-06
 -25.440 -0.559E-06 -0.559E-06
 -25.430 -0.441E-06 -0.441E-06
 -25.420 -0.347E-06 -0.347E-06
 -25.410 -0.272E-06 -0.272E-06
 -25.400 -0.213E-06 -0.213E-06
 -25.390 -0.166E-06 -0.166E-06
 -25.380 -0.129E-06 -0.129E-06
 -25.370 -0.100E-06 -0.100E-06
 -25.360 -0.777E-07 -0.777E-07
 -25.350 -0.600E-07 -0.600E-07
 -25.340 -0.461E-07 -0.461E-07
 -25.330 -0.354E-07 -0.354E-07
 -25.320 -0.271E-07 -0.271E-07
 -25.310 -0.206E-07 -0.206E-07
 -25.300 -0.157E-07 -0.157E-07
 -25.290 -0.118E-07 -0.118E-07
 -25.280 -0.891E-08 -0.891E-08
 -25.270 -0.646E-08 -0.646E-08
 -25.260 -0.487E-08 -0.487E-08
 -25.250 -0.366E-08 -0.366E-08
 -25.240 -0.273E-08 -0.273E-08
 -25.230 -0.203E-08 -0.203E-08
 -25.220 -0.150E-08 -0.150E-08
 -25.210 -0.110E-08 -0.110E-08
 -25.200 -0.804E-09 -0.804E-09
 -25.190 -0.575E-09 -0.575E-09
 -25.180 -0.404E-09 -0.404E-09
 -25.170 -0.271E-09 -0.271E-09
 -25.160 -0.138E-09 -0.138E-09
 -25.150  0.000E+00  0.000E+00
 -25.140  0.000E+00  0.000E+00
 -25.130  0.000E+00  0.000E+00
 -25.120  0.000E+00  0.000E+00
 -25.110  0.000E+00  0.000E+00
 -25.100  0.000E+00  0.000E+00
 -25.090  0.000E+00  0.000E+00
 -25.080  0.000E+00  0.000E+00
 -25.070  0.000E+00  0.000E+00
 -25.060  0.000E+00  0.000E+00
 -25.050  0.000E+00  0.000E+00
 -25.040  0.000E+00  0.000E+00
 -25.030  0.000E+00  0.000E+00
 -25.020  0.000E+00  0.000E+00
 -25.010  0.000E+00  0.000E+00
 -25.000  0.000E+00  0.000E+00
 -24.990  0.000E+00  0.000E+00
 -24.980  0.000E+00  0.000E+00
 -24.970  0.000E+00  0.000E+00
 -24.960  0.000E+00  0.000E+00
 -24.950  0.000E+00  0.000E+00
 -24.940  0.000E+00  0.000E+00
 -24.930  0.000E+00  0.000E+00
 -24.920  0.000E+00  0.000E+00
 -24.910  0.000E+00  0.000E+00
 -24.900  0.000E+00  0.000E+00
 -24.890  0.000E+00  0.000E+00
 -24.880  0.000E+00  0.000E+00
 -24.870  0.000E+00  0.000E+00
 -24.860  0.000E+00  0.000E+00
 -24.850  0.000E+00  0.000E+00
 -24.840  0.000E+00  0.000E+00
 -24.830  0.000E+00  0.000E+00
 -24.820  0.000E+00  0.000E+00
 -24.810  0.000E+00  0.000E+00
 -24.800  0.000E+00  0.000E+00
 -24.790  0.000E+00  0.000E+00
 -24.780  0.000E+00  0.000E+00
 -24.770  0.000E+00  0.000E+00
 -24.760  0.000E+00  0.000E+00
 -24.750  0.000E+00  0.000E+00
 -24.740  0.000E+00  0.000E+00
 -24.730  0.000E+00  0.000E+00
 -24.720  0.000E+00  0.000E+00
 -24.710  0.000E+00  0.000E+00
 -24.700  0.000E+00  0.000E+00
 -24.690  0.000E+00  0.000E+00
 -24.680  0.000E+00  0.000E+00
 -24.670  0.000E+00  0.000E+00
 -24.660  0.000E+00  0.000E+00
 -24.650  0.000E+00  0.000E+00
 -24.640  0.000E+00  0.000E+00
 -24.630  0.000E+00  0.000E+00
 -24.620  0.000E+00  0.000E+00
 -24.610  0.000E+00  0.000E+00
 -24.600  0.000E+00  0.000E+00
 -24.590  0.000E+00  0.000E+00
 -24.580  0.000E+00  0.000E+00
 -24.570  0.000E+00  0.000E+00
 -24.560  0.000E+00  0.000E+00
 -24.550  0.000E+00  0.000E+00
 -24.540  0.000E+00  0.000E+00
 -24.530  0.000E+00  0.000E+00
 -24.520  0.000E+00  0.000E+00
 -24.510  0.000E+00  0.000E+00
 -24.500  0.000E+00  0.000E+00
 -24.490  0.000E+00  0.000E+00
 -24.480  0.000E+00  0.000E+00
 -24.470  0.000E+00  0.000E+00
 -24.460  0.000E+00  0.000E+00
 -24.450  0.000E+00  0.000E+00
 -24.440  0.000E+00  0.000E+00
 -24.430  0.000E+00  0.000E+00
 -24.420  0.000E+00  0.000E+00
 -24.410  0.000E+00  0.000E+00
 -24.400  0.000E+00  0.000E+00
 -24.390  0.000E+00  0.000E+00
 -24.380  0.000E+00  0.000E+00
 -24.370  0.000E+00  0.000E+00
 -24.360  0.000E+00  0.000E+00
 -24.350  0.000E+00  0.000E+00
 -24.340  0.000E+00  0.000E+00
 -24.330  0.000E+00  0.000E+00
 -24.320  0.000E+00  0.000E+00
 -24.310  0.000E+00  0.000E+00
 -24.300  0.000E+00  0.000E+00
 -24.290  0.000E+00  0.000E+00
 -24.280  0.000E+00  0.000E+00
 -24.270  0.000E+00  0.000E+00
 -24.260  0.000E+00  0.000E+00
 -24.250  0.000E+00  0.000E+00
 -24.240  0.000E+00  0.000E+00
 -24.230  0.000E+00  0.000E+00
 -24.220  0.000E+00  0.000E+00
 -24.210  0.000E+00  0.000E+00
 -24.200  0.000E+00  0.000E+00
 -24.190  0.000E+00  0.000E+00
 -24.180  0.000E+00  0.000E+00
 -24.170  0.000E+00  0.000E+00
 -24.160  0.000E+00  0.000E+00
 -24.150  0.000E+00  0.000E+00
 -24.140  0.000E+00  0.000E+00
 -24.130  0.000E+00  0.000E+00
 -24.120  0.000E+00  0.000E+00
 -24.110  0.000E+00  0.000E+00
 -24.100  0.000E+00  0.000E+00
 -24.090  0.000E+00  0.000E+00
 -24.080  0.000E+00  0.000E+00
 -24.070  0.000E+00  0.000E+00
 -24.060  0.000E+00  0.000E+00
 -24.050  0.000E+00  0.000E+00
 -24.040  0.000E+00  0.000E+00
 -24.030  0.000E+00  0.000E+00
 -24.020  0.000E+00  0.000E+00
 -24.010  0.000E+00  0.000E+00
 -24.000  0.000E+00  0.000E+00
 -23.990  0.000E+00  0.000E+00
 -23.980  0.000E+00  0.000E+00
 -23.970  0.000E+00  0.000E+00
 -23.960  0.000E+00  0.000E+00
 -23.950  0.000E+00  0.000E+00
 -23.940  0.000E+00  0.000E+00
 -23.930  0.000E+00  0.000E+00
 -23.920  0.000E+00  0.000E+00
 -23.910  0.000E+00  0.000E+00
 -23.900  0.000E+00  0.000E+00
 -23.890  0.000E+00  0.000E+00
 -23.880  0.000E+00  0.000E+00
 -23.870  0.000E+00  0.000E+00
 -23.860  0.000E+00  0.000E+00
 -23.850  0.000E+00  0.000E+00
 -23.840  0.000E+00  0.000E+00
 -23.830  0.000E+00  0.000E+00
 -23.820  0.000E+00  0.000E+00
 -23.810  0.000E+00  0.000E+00
 -23.800  0.000E+00  0.000E+00
 -23.790  0.000E+00  0.000E+00
 -23.780  0.000E+00  0.000E+00
 -23.770  0.000E+00  0.000E+00
 -23.760  0.000E+00  0.000E+00
 -23.750  0.000E+00  0.000E+00
 -23.740  0.000E+00  0.000E+00
 -23.730  0.000E+00  0.000E+00
 -23.720  0.000E+00  0.000E+00
 -23.710  0.000E+00  0.000E+00
 -23.700  0.000E+00  0.000E+00
 -23.690  0.000E+00  0.000E+00
 -23.680  0.000E+00  0.000E+00
 -23.670  0.000E+00  0.000E+00
 -23.660  0.000E+00  0.000E+00
 -23.650  0.000E+00  0.000E+00
 -23.640  0.000E+00  0.000E+00
 -23.630  0.000E+00  0.000E+00
 -23.620  0.000E+00  0.000E+00
 -23.610  0.000E+00  0.000E+00
 -23.600  0.000E+00  0.000E+00
 -23.590  0.000E+00  0.000E+00
 -23.580  0.000E+00  0.000E+00
 -23.570  0.000E+00  0.000E+00
 -23.560  0.000E+00  0.000E+00
 -23.550  0.000E+00  0.000E+00
 -23.540  0.000E+00  0.000E+00
 -23.530  0.000E+00  0.000E+00
 -23.520  0.000E+00  0.000E+00
 -23.510  0.000E+00  0.000E+00
 -23.500  0.000E+00  0.000E+00
 -23.490  0.000E+00  0.000E+00
 -23.480  0.000E+00  0.000E+00
 -23.470  0.000E+00  0.000E+00
 -23.460  0.000E+00  0.000E+00
 -23.450  0.000E+00  0.000E+00
 -23.440  0.000E+00  0.000E+00
 -23.430  0.000E+00  0.000E+00
 -23.420  0.000E+00  0.000E+00
 -23.410  0.000E+00  0.000E+00
 -23.400  0.000E+00  0.000E+00
 -23.390  0.000E+00  0.000E+00
 -23.380  0.000E+00  0.000E+00
 -23.370  0.000E+00  0.000E+00
 -23.360  0.000E+00  0.000E+00
 -23.350  0.000E+00  0.000E+00
 -23.340  0.000E+00  0.000E+00
 -23.330  0.000E+00  0.000E+00
 -23.320  0.000E+00  0.000E+00
 -23.310  0.000E+00  0.000E+00
 -23.300  0.000E+00  0.000E+00
 -23.290  0.000E+00  0.000E+00
 -23.280  0.000E+00  0.000E+00
 -23.270  0.000E+00  0.000E+00
 -23.260  0.000E+00  0.000E+00
 -23.250  0.000E+00  0.000E+00
 -23.240  0.000E+00  0.000E+00
 -23.230  0.000E+00  0.000E+00
 -23.220  0.000E+00  0.000E+00
 -23.210  0.000E+00  0.000E+00
 -23.200  0.000E+00  0.000E+00
 -23.190  0.000E+00  0.000E+00
 -23.180  0.000E+00  0.000E+00
 -23.170  0.000E+00  0.000E+00
 -23.160  0.000E+00  0.000E+00
 -23.150  0.000E+00  0.000E+00
 -23.140  0.000E+00  0.000E+00
 -23.130  0.000E+00  0.000E+00
 -23.120  0.000E+00  0.000E+00
 -23.110  0.000E+00  0.000E+00
 -23.100  0.000E+00  0.000E+00
 -23.090  0.000E+00  0.000E+00
 -23.080  0.000E+00  0.000E+00
 -23.070  0.000E+00  0.000E+00
 -23.060  0.000E+00  0.000E+00
 -23.050  0.000E+00  0.000E+00
 -23.040  0.000E+00  0.000E+00
 -23.030  0.000E+00  0.000E+00
 -23.020  0.000E+00  0.000E+00
 -23.010  0.000E+00  0.000E+00
 -23.000  0.000E+00  0.000E+00
 -22.990  0.000E+00  0.000E+00
 -22.980  0.000E+00  0.000E+00
 -22.970  0.000E+00  0.000E+00
 -22.960  0.000E+00  0.000E+00
 -22.950  0.000E+00  0.000E+00
 -22.940  0.000E+00  0.000E+00
 -22.930  0.000E+00  0.000E+00
 -22.920  0.000E+00  0.000E+00
 -22.910  0.000E+00  0.000E+00
 -22.900  0.000E+00  0.000E+00
 -22.890  0.000E+00  0.000E+00
 -22.880  0.000E+00  0.000E+00
 -22.870  0.000E+00  0.000E+00
 -22.860  0.000E+00  0.000E+00
 -22.850  0.000E+00  0.000E+00
 -22.840  0.000E+00  0.000E+00
 -22.830  0.000E+00  0.000E+00
 -22.820  0.000E+00  0.000E+00
 -22.810  0.000E+00  0.000E+00
 -22.800  0.000E+00  0.000E+00
 -22.790  0.000E+00  0.000E+00
 -22.780  0.000E+00  0.000E+00
 -22.770  0.000E+00  0.000E+00
 -22.760  0.000E+00  0.000E+00
 -22.750  0.000E+00  0.000E+00
 -22.740  0.000E+00  0.000E+00
 -22.730  0.000E+00  0.000E+00
 -22.720  0.000E+00  0.000E+00
 -22.710  0.000E+00  0.000E+00
 -22.700  0.000E+00  0.000E+00
 -22.690  0.000E+00  0.000E+00
 -22.680  0.000E+00  0.000E+00
 -22.670  0.000E+00  0.000E+00
 -22.660  0.000E+00  0.000E+00
 -22.650  0.000E+00  0.000E+00
 -22.640  0.000E+00  0.000E+00
 -22.630  0.000E+00  0.000E+00
 -22.620  0.000E+00  0.000E+00
 -22.610  0.000E+00  0.000E+00
 -22.600  0.000E+00  0.000E+00
 -22.590  0.000E+00  0.000E+00
 -22.580  0.000E+00  0.000E+00
 -22.570  0.000E+00  0.000E+00
